================================================================================
PARKINSON'S BRAIN CALIBRATION — FULL OUTPUT
Generated from: park-sen/Model_Results/ (Fleming et al. 2023 simulation)
Source:         parkinsons_Motor/brain_calibrator.py
Environment:    parkinsons_Motor/server/parkinsons_Motor_environment.py
================================================================================

[calibrator] 100 windows loaded from CSVs | tremor=0.016 beta=0.7828 sEMG=0.110 DBS_median=0.490mA force_median=18599.6

=== PHYSIOLOGICAL REFERENCE POINTS ===
healthy_force_mn   : 59752.58 mN
predbs_force_mn    : 47642.83 mN  (79.7% of healthy)
tremor_arv_max     : 159.0608 mV
beta_arv_max       : 0.00024312 mV
force_max          : 59752.58 mN
side_effect_max    : 0.5595

=== BASELINE (pre-DBS) ===
baseline_tremor_arv      : 0.0157
baseline_beta_arv        : 0.7828
baseline_dbs_amplitude   : 0.4900 mA
baseline_force           : 18599.57 mN

=== FULL TIMELINE (100 steps) ===
t_s      tremor   beta     semg     dbs_ma   dbs_pw  force_mN   force%  severity  beta_sup  sched  bc_err   se_load
10.020    0.0117  0.7347  0.0712  0.0000  0.0600   55644.92  93.13%  0.0117    0.2653    0   3.3454  0.6352
10.040    0.0198  0.8309  0.1484  0.0000  0.0600   54473.67  91.17%  0.0198    0.1691    1   3.3454  0.6352
10.060    0.0266  0.9307  0.2174  0.4188  0.0600   51527.73  86.24%  0.0266    0.0693    1   3.3454  0.6352
10.080    0.0338  0.9960  0.2712  0.4950  0.0600   47588.16  79.64%  0.0338    0.0040    1   3.6504  0.6352
10.100    0.0417  1.0000  0.3328  0.5389  0.0600   43562.74  72.91%  0.0417    0.0000    1   3.6691  0.6352
10.120    0.0499  0.9312  0.3635  0.5404  0.0600   41193.73  68.94%  0.0499    0.0688    1   3.3477  0.6352
10.140    0.0652  0.7954  0.4164  0.4992  0.0600   39006.13  65.28%  0.0652    0.2046    1   2.7140  0.6352
10.160    0.0865  0.6117  0.4804  0.4227  0.0600   36368.11  60.86%  0.0865    0.3883    1   1.8559  0.6352
10.180    0.1045  0.4060  0.5269  0.3236  0.0600   33844.45  56.64%  0.1045    0.5940    1   0.8959  0.6352
10.200    0.1315  0.2158  0.5823  0.2226  0.0600   32444.44  54.30%  0.1315    0.7842    1   0.0075  0.6352
10.220    0.1706  0.1237  0.6545  0.1689  0.0600   30635.82  51.27%  0.1706    0.8763    1  -0.4226  0.6352
10.240    0.2173  0.1244  0.6721  0.1645  0.0600   28431.50  47.58%  0.2173    0.8756    1  -0.4193  0.6352
10.260    0.2551  0.1599  0.6591  0.1805  0.0600   28436.35  47.59%  0.2551    0.8401    1  -0.2532  0.6352
10.280    0.2719  0.1624  0.7166  0.1790  0.0600   30433.46  50.93%  0.2719    0.8376    1  -0.2417  0.6352
10.300    0.3092  0.1494  0.7661  0.1687  0.0600   30861.33  51.65%  0.3092    0.8506    1  -0.3025  0.6352
10.320    0.3645  0.1877  0.7785  0.1876  0.0600   30195.52  50.53%  0.3645    0.8123    1  -0.1238  0.6352
10.340    0.4084  0.2806  0.8141  0.2405  0.0600   29865.22  49.98%  0.4084    0.7194    1   0.3103  0.6352
10.360    0.4300  0.3874  0.8723  0.3064  0.0600   30710.43  51.40%  0.4300    0.6126    1   0.8087  0.6352
10.380    0.4442  0.4688  0.7750  0.3633  0.0600   29984.19  50.18%  0.4442    0.5312    1   1.1889  0.6352
10.400    0.4701  0.5080  0.8057  0.3997  0.0600   28638.93  47.93%  0.4701    0.4920    1   1.3719  0.6352
10.420    0.4981  0.5043  0.8407  0.4132  0.0600   30512.22  51.06%  0.4981    0.4957    1   1.3548  0.6352
10.440    0.5001  0.4694  0.8392  0.4081  0.0600   32612.17  54.58%  0.5001    0.5306    1   1.1916  0.6352
10.460    0.5004  0.4173  0.8301  0.3913  0.0600   32489.55  54.37%  0.5004    0.5827    1   0.9484  0.6352
10.480    0.5129  0.3613  0.8910  0.3693  0.0600   31847.48  53.30%  0.5129    0.6387    1   0.6871  0.6352
10.500    0.5179  0.3065  0.9147  0.3451  0.0600   30754.84  51.47%  0.5179    0.6935    1   0.4312  0.6352
10.520    0.4849  0.2534  0.8797  0.3190  0.0600   29257.07  48.96%  0.4849    0.7466    1   0.1834  0.6352
10.540    0.4412  0.2022  0.7524  0.2912  0.0600   27203.76  45.53%  0.4412    0.7978    1  -0.0558  0.6352
10.560    0.4252  0.1581  0.8080  0.2648  0.0600   27225.36  45.56%  0.4252    0.8419    1  -0.2616  0.6352
10.580    0.4520  0.1336  0.8566  0.2474  0.0600   30829.90  51.60%  0.4520    0.8664    1  -0.3764  0.6352
10.600    0.4711  0.1450  0.8885  0.2498  0.0600   32062.26  53.66%  0.4711    0.8550    1  -0.3228  0.6352
10.620    0.4412  0.1928  0.8464  0.2741  0.0600   31286.47  52.36%  0.4412    0.8072    1  -0.0998  0.6352
10.640    0.3973  0.2658  0.8784  0.3156  0.0600   30353.52  50.80%  0.3973    0.7342    1   0.2411  0.6352
10.660    0.4032  0.3478  0.9100  0.3663  0.0600   28694.14  48.02%  0.4032    0.6522    1   0.6238  0.6352
10.680    0.4842  0.4208  0.9250  0.4161  0.0600   26896.79  45.01%  0.4842    0.5792    1   0.9650  0.6352
10.700    0.5431  0.4715  0.8444  0.4567  0.0600   25941.72  43.42%  0.5431    0.5285    1   1.2015  0.6352
10.720    0.5275  0.4877  0.7723  0.4798  0.0600   26770.80  44.80%  0.5275    0.5123    1   1.2770  0.6352
10.740    0.4949  0.4666  0.8301  0.4820  0.0600   27158.10  45.45%  0.4949    0.5334    1   1.1786  0.6352
10.760    0.5278  0.4200  0.8096  0.4682  0.0600   27145.04  45.43%  0.5278    0.5800    1   0.9610  0.6352
10.780    0.6022  0.3660  0.7947  0.4476  0.0600   26870.66  44.97%  0.6022    0.6340    1   0.7089  0.6352
10.800    0.6512  0.3347  0.8382  0.4373  0.0600   25499.92  42.68%  0.6512    0.6653    1   0.5627  0.6352
10.820    0.6417  0.3307  0.8345  0.4414  0.0600   24009.96  40.18%  0.6417    0.6693    1   0.5441  0.6352
10.840    0.6641  0.3344  0.8444  0.4497  0.0600   22665.87  37.93%  0.6641    0.6656    1   0.5612  0.6352
10.860    0.7069  0.3217  0.7526  0.4487  0.0600   21613.62  36.17%  0.7069    0.6783    1   0.5019  0.6352
10.880    0.7194  0.2898  0.7810  0.4358  0.0600   21304.25  35.65%  0.7194    0.7102    1   0.3531  0.6352
10.900    0.6970  0.2632  0.8286  0.4243  0.0600   21768.66  36.43%  0.6970    0.7368    1   0.2290  0.6352
10.920    0.7255  0.2743  0.7491  0.4334  0.0600   22074.52  36.94%  0.7255    0.7257    1   0.2808  0.6352
10.940    0.7871  0.3251  0.7618  0.4663  0.0600   21838.57  36.55%  0.7871    0.6749    1   0.5181  0.6352
10.960    0.7917  0.3882  0.8054  0.5090  0.0600   20777.43  34.77%  0.7917    0.6118    1   0.8125  0.6352
10.980    0.7263  0.4305  0.8215  0.5430  0.0600   19745.01  33.04%  0.7263    0.5695    1   1.0100  0.6352
11.000    0.7235  0.4315  0.7753  0.5551  0.0600   18975.11  31.76%  0.7235    0.5685    1   1.0149  0.6352
11.020    0.8049  0.3911  0.8107  0.5430  0.0600   18224.03  30.50%  0.8049    0.6089    1   0.8262  0.6352
11.040    0.8299  0.3229  0.8709  0.5125  0.0600   18121.62  30.33%  0.8299    0.6771    1   0.5077  0.6352
11.060    0.7664  0.2546  0.7439  0.4784  0.0600   17962.07  30.06%  0.7664    0.7454    1   0.1886  0.6352
11.080    0.7341  0.2071  0.7148  0.4528  0.0600   18223.52  30.50%  0.7341    0.7929    1  -0.0331  0.6352
11.100    0.7987  0.2078  0.7556  0.4528  0.0600   18175.41  30.42%  0.7987    0.7922    1  -0.0300  0.6352
11.120    0.8669  0.2578  0.7947  0.4817  0.0600   17793.93  29.78%  0.8669    0.7422    1   0.2039  0.6926
11.140    0.8319  0.3356  0.7664  0.5295  0.0600   17027.35  28.50%  0.8319    0.6644    1   0.5670  0.6926
11.160    0.7781  0.4090  0.8220  0.5788  0.0600   16359.54  27.38%  0.7781    0.5910    1   0.9096  0.6926
11.180    0.8209  0.4549  0.8003  0.6160  0.0600   15807.75  26.46%  0.8209    0.5451    1   1.1240  0.6926
11.200    0.9048  0.4508  0.8306  0.6264  0.0600   15078.64  25.24%  0.9048    0.5492    1   1.1050  0.6926
11.220    0.9011  0.3985  0.7439  0.6084  0.0600   14954.99  25.03%  0.9011    0.6015    1   0.8608  0.6926
11.240    0.8451  0.3167  0.7896  0.5704  0.0600   15730.44  26.33%  0.8451    0.6833    1   0.4789  0.6926
11.260    0.8648  0.2410  0.7796  0.5316  0.0600   15869.86  26.56%  0.8648    0.7590    1   0.1255  0.6926
11.280    0.9482  0.2016  0.8095  0.5100  0.0600   15305.59  25.61%  0.9482    0.7984    1  -0.0586  0.6926
11.300    0.9576  0.2074  0.8757  0.5127  0.0600   14948.90  25.02%  0.9576    0.7926    1  -0.0318  0.6926
11.320    0.8925  0.2507  0.8452  0.5377  0.0600   14697.99  24.60%  0.8925    0.7493    1   0.1705  0.8174
11.340    0.8969  0.2960  0.8590  0.5661  0.0600   14056.92  23.53%  0.8969    0.7040    1   0.3820  0.8174
11.360    0.9719  0.3353  0.9238  0.5934  0.0600   13649.29  22.84%  0.9719    0.6647    1   0.5658  0.8174
11.380    0.9844  0.3626  0.8537  0.6158  0.0600   13662.33  22.86%  0.9844    0.6374    1   0.6931  0.8174
11.400    0.9210  0.3722  0.8966  0.6293  0.0600   13089.58  21.91%  0.9210    0.6278    1   0.7377  0.8174
11.420    0.9009  0.3559  0.8984  0.6282  0.0600   12424.45  20.79%  0.9009    0.6441    1   0.6619  0.8174
11.440    0.9551  0.3117  0.8978  0.6098  0.0600   12093.92  20.24%  0.9551    0.6883    1   0.4552  0.8174
11.460    0.9931  0.2492  0.9388  0.5785  0.0600   11728.22  19.63%  0.9931    0.7508    1   0.1636  0.8174
11.480    0.9396  0.1807  0.8945  0.5404  0.0600   11227.45  18.79%  0.9396    0.8193    1  -0.1561  0.8174
11.500    0.8989  0.1188  0.9458  0.5024  0.0600   10572.57  17.69%  0.8989    0.8812    1  -0.4454  0.8174
11.520    0.9349  0.0721  1.0000  0.4700  0.0600   10113.10  16.92%  0.9349    0.9279    1  -0.6634  0.8855
11.540    1.0000  0.0546  0.8840  0.4522  0.0600    9993.49  16.72%  1.0000    0.9454    1  -0.7451  0.8855
11.560    0.9717  0.0824  0.9253  0.4600  0.0600    9684.69  16.21%  0.9717    0.9176    1  -0.6152  0.8855
11.580    0.9086  0.1369  0.9137  0.4849  0.0600    9575.53  16.03%  0.9086    0.8631    1  -0.3607  0.8855
11.600    0.9123  0.1905  0.9177  0.5121  0.0600    9480.40  15.87%  0.9123    0.8095    1  -0.1105  0.8855
11.620    0.9856  0.2336  0.9082  0.5360  0.0600    9262.07  15.50%  0.9856    0.7664    1   0.0907  0.8855
11.640    0.9810  0.2669  0.9364  0.5565  0.0600    8955.95  14.99%  0.9810    0.7331    1   0.2462  0.8855
11.660    0.9061  0.2947  0.9151  0.5756  0.0600    8736.65  14.62%  0.9061    0.7053    1   0.3760  0.8855
11.680    0.8823  0.3161  0.9080  0.5923  0.0600    8510.22  14.24%  0.8823    0.6839    1   0.4757  0.8855
11.700    0.9299  0.3271  0.9628  0.6042  0.0600    8176.15  13.68%  0.9299    0.6729    1   0.5273  0.8855
11.720    0.9465  0.3189  0.8392  0.6054  0.0600    7716.82  12.91%  0.9465    0.6811    1   0.4891  0.9485
11.740    0.8961  0.2915  0.8411  0.5949  0.0600    7285.20  12.19%  0.8961    0.7085    1   0.3608  0.9485
11.760    0.8396  0.2545  0.8987  0.5774  0.0600    6850.27  11.46%  0.8396    0.7455    1   0.1882  0.9485
11.780    0.8418  0.2265  0.9043  0.5632  0.0600    6459.97  10.81%  0.8418    0.7735    1   0.0575  0.9485
11.800    0.8558  0.2232  0.8333  0.5619  0.0600    6219.86  10.41%  0.8558    0.7768    1   0.0421  0.9485
11.820    0.8153  0.2425  0.8816  0.5737  0.0600    5892.83   9.86%  0.8153    0.7575    1   0.1321  0.9485
11.840    0.7855  0.2709  0.9223  0.5918  0.0600    5495.55   9.20%  0.7855    0.7291    1   0.2649  0.9485
11.860    0.7936  0.2940  0.8765  0.6083  0.0600    5189.32   8.68%  0.7936    0.7060    1   0.3728  0.9485
11.880    0.8077  0.3078  0.8134  0.6206  0.0600    4829.40   8.08%  0.8077    0.6922    1   0.4373  0.9485
11.900    0.7412  0.3108  0.8596  0.6274  0.0600    4405.72   7.37%  0.7412    0.6892    1   0.4511  0.9485
11.920    0.6752  0.3037  0.9093  0.6283  0.0600    3990.89   6.68%  0.6752    0.6963    1   0.4179  1.0000
11.940    0.6807  0.2873  0.8876  0.6235  0.0600    3575.41   5.98%  0.6807    0.7127    1   0.3413  1.0000
11.960    0.7343  0.2573  0.9295  0.6099  0.0600    3204.56   5.36%  0.7343    0.7427    1   0.2013  1.0000
11.980    0.7382  0.2106  0.9161  0.5849  0.0600    2874.22   4.81%  0.7382    0.7894    1  -0.0165  1.0000
12.000    0.6872  0.1494  0.8731  0.5489  0.0600    2553.18   4.27%  0.6872    0.8506    1  -0.3025  1.0000

=== DBS ENTRAINMENT LOOKUP TABLE ===
amps: 0.000 0.250 0.500 0.750 1.000 1.250 1.500 1.750 2.000 3.000 4.000 5.000
pws:  0.0600 0.0700 0.0800 0.0900 0.1000 0.1100 0.1200 0.1300 0.1400 0.1500 0.1600 0.1700 0.1800 0.1900 0.2000

amp\pw  0.0600  0.0700  0.0800  0.0900  0.1000  0.1100  0.1200  0.1300  0.1400  0.1500  0.1600  0.1700  0.1800  0.1900  0.2000
0.000    0.000  0.000  0.000  0.000  0.000  0.000  0.000  0.000  0.000  0.000  0.000  0.000  0.000  0.000  0.000
0.250    0.000  0.000  0.000  0.000  0.000  0.000  0.000  0.000  0.000  0.000  0.000  0.000  0.000  0.000  0.000
0.500    0.000  0.000  0.000  0.000  0.020  0.020  0.020  0.040  0.040  0.040  0.040  0.040  0.040  0.050  0.070
0.750    0.010  0.020  0.040  0.040  0.070  0.070  0.080  0.130  0.140  0.200  0.200  0.230  0.260  0.300  0.320
1.000    0.040  0.050  0.080  0.110  0.210  0.220  0.280  0.360  0.360  0.450  0.450  0.520  0.580  0.600  0.750
1.250    0.080  0.140  0.200  0.300  0.410  0.410  0.490  0.660  0.670  0.860  0.860  0.880  0.950  0.970  1.000
1.500    0.190  0.280  0.360  0.450  0.700  0.710  0.850  0.950  0.950  1.000  1.000  1.000  1.000  1.000  1.000
1.750    0.300  0.410  0.560  0.720  0.950  0.950  0.990  1.000  1.000  1.000  1.000  1.000  1.000  1.000  1.000
2.000    0.410  0.590  0.830  0.950  1.000  1.000  1.000  1.000  1.000  1.000  1.000  1.000  1.000  1.000  1.000
3.000    1.000  1.000  1.000  1.000  1.000  1.000  1.000  1.000  1.000  1.000  1.000  1.000  1.000  1.000  1.000
4.000    1.000  1.000  1.000  1.000  1.000  1.000  1.000  1.000  1.000  1.000  1.000  1.000  1.000  1.000  1.000
5.000    1.000  1.000  1.000  1.000  1.000  1.000  1.000  1.000  1.000  1.000  1.000  1.000  1.000  1.000  1.000

=== DBS ENTRAINMENT SPOT CHECKS ===
  0.00mA / 0.06ms  ->    0.00% entrained
  0.00mA / 0.10ms  ->    0.00% entrained
  0.00mA / 0.13ms  ->    0.00% entrained
  0.00mA / 0.16ms  ->    0.00% entrained
  0.00mA / 0.20ms  ->    0.00% entrained
  0.25mA / 0.06ms  ->    0.00% entrained
  0.25mA / 0.10ms  ->    0.00% entrained
  0.25mA / 0.13ms  ->    0.00% entrained
  0.25mA / 0.16ms  ->    0.00% entrained
  0.25mA / 0.20ms  ->    0.00% entrained
  0.50mA / 0.06ms  ->    0.00% entrained
  0.50mA / 0.10ms  ->    2.00% entrained
  0.50mA / 0.13ms  ->    4.00% entrained
  0.50mA / 0.16ms  ->    4.00% entrained
  0.50mA / 0.20ms  ->    7.00% entrained
  0.75mA / 0.06ms  ->    1.00% entrained
  0.75mA / 0.10ms  ->    7.00% entrained
  0.75mA / 0.13ms  ->   13.00% entrained
  0.75mA / 0.16ms  ->   20.00% entrained
  0.75mA / 0.20ms  ->   32.00% entrained
  1.00mA / 0.06ms  ->    4.00% entrained
  1.00mA / 0.10ms  ->   21.00% entrained
  1.00mA / 0.13ms  ->   36.00% entrained
  1.00mA / 0.16ms  ->   45.00% entrained
  1.00mA / 0.20ms  ->   75.00% entrained
  1.25mA / 0.06ms  ->    8.00% entrained
  1.25mA / 0.10ms  ->   41.00% entrained
  1.25mA / 0.13ms  ->   66.00% entrained
  1.25mA / 0.16ms  ->   86.00% entrained
  1.25mA / 0.20ms  ->  100.00% entrained
  1.50mA / 0.06ms  ->   19.00% entrained
  1.50mA / 0.10ms  ->   70.00% entrained
  1.50mA / 0.13ms  ->   95.00% entrained
  1.50mA / 0.16ms  ->  100.00% entrained
  1.50mA / 0.20ms  ->  100.00% entrained
  2.00mA / 0.06ms  ->   41.00% entrained
  2.00mA / 0.10ms  ->  100.00% entrained
  2.00mA / 0.13ms  ->  100.00% entrained
  2.00mA / 0.16ms  ->  100.00% entrained
  2.00mA / 0.20ms  ->  100.00% entrained
  3.00mA / 0.06ms  ->  100.00% entrained
  3.00mA / 0.10ms  ->  100.00% entrained
  3.00mA / 0.13ms  ->  100.00% entrained
  3.00mA / 0.16ms  ->  100.00% entrained
  3.00mA / 0.20ms  ->  100.00% entrained
  5.00mA / 0.06ms  ->  100.00% entrained
  5.00mA / 0.10ms  ->  100.00% entrained
  5.00mA / 0.13ms  ->  100.00% entrained
  5.00mA / 0.16ms  ->  100.00% entrained
  5.00mA / 0.20ms  ->  100.00% entrained

=== REWARD COMPARISON ACROSS DBS STRATEGIES (seed=42) ===
strategy                    total_r    avg_force%  avg_err  avg_entrainment  final_severity
No DBS                         44.959     33.85%  0.0804  0.0000           0.6872
DBS 0.25mA/0.06ms              44.834     33.85%  0.0804  0.0000           0.6872
DBS 0.50mA/0.06ms              44.709     33.85%  0.0804  0.0000           0.6872
DBS 0.50mA/0.13ms              45.370     34.39%  0.0781  0.0400           0.6734
DBS 1.00mA/0.13ms              50.422     38.68%  0.0598  0.3600           0.5635
DBS 1.50mA/0.13ms              59.975     46.16%  0.0251  0.9500           0.3608
DBS 2.00mA/0.13ms              60.551     46.77%  0.0223  1.0000           0.3436
DBS 2.00mA/0.20ms              60.551     46.77%  0.0223  1.0000           0.3436
DBS 3.00mA/0.20ms              60.051     46.77%  0.0223  1.0000           0.3436
DBS 5.00mA/0.20ms              59.051     46.77%  0.0223  1.0000           0.3436

=== FORCE DECAY (no DBS, every 10 steps) ===
step  t_s    force_mN   force%   tremor   beta     severity
   1  10.04   54473.67   91.17%  0.0198  0.8309  0.0198
  11  10.24   28431.50   47.58%  0.2173  0.1244  0.2173
  21  10.44   32612.17   54.58%  0.5001  0.4694  0.5001
  31  10.64   30353.52   50.80%  0.3973  0.2658  0.3973
  41  10.84   22665.87   37.93%  0.6641  0.3344  0.6641
  51  11.04   18121.62   30.33%  0.8299  0.3229  0.8299
  61  11.24   15730.44   26.33%  0.8451  0.3167  0.8451
  71  11.44   12093.92   20.24%  0.9551  0.3117  0.9551
  81  11.64    8955.95   14.99%  0.9810  0.2669  0.9810
  91  11.84    5495.55    9.20%  0.7855  0.2709  0.7855
 100  12.00    2553.18    4.27%  0.6872  0.1494  0.6872

=== FORCE TRAJECTORY WITH OPTIMAL DBS 2mA/0.13ms ===
step  t_s    force_mN   force%   tremor   beta     severity  entrainment
   1  10.04   54473.67  100.00%  0.0079  0.0000  0.0099  1.0000
  11  10.24   28431.50   66.61%  0.0869  0.0000  0.1086  1.0000
  21  10.44   32612.17   76.41%  0.2000  0.0000  0.2500  1.0000
  31  10.64   30353.52   71.12%  0.1589  0.0000  0.1987  1.0000
  41  10.84   22665.87   53.11%  0.2657  0.0000  0.3321  1.0000
  51  11.04   18121.62   42.46%  0.3320  0.0000  0.4150  1.0000
  61  11.24   15730.44   36.86%  0.3380  0.0000  0.4225  1.0000
  71  11.44   12093.92   28.34%  0.3821  0.0000  0.4776  1.0000
  81  11.64    8955.95   20.98%  0.3924  0.0000  0.4905  1.0000
  91  11.84    5495.55   12.88%  0.3142  0.0000  0.3928  1.0000
 100  12.00    2553.18    5.98%  0.2749  0.0000  0.3436  1.0000
